/*--------------------------------*- C++ -*----------------------------------*\
| =========                 |                                                 |
| \\      /  F ield         | OpenFOAM: The Open Source CFD Toolbox           |
|  \\    /   O peration     | Version:  2306                                  |
|   \\  /    A nd           | Website:  www.openfoam.com                      |
|    \\/     M anipulation  |                                                 |
\*---------------------------------------------------------------------------*/
FoamFile
{
    version     2.0;
    format      ascii;
    arch        "LSB;label=32;scalar=64";
    class       volScalarField;
    location    "1.5/electrolyte";
    object      T;
}
// * * * * * * * * * * * * * * * * * * * * * * * * * * * * * * * * * * * * * //

dimensions      [0 0 0 1 0 0 0];

internalField   nonuniform List<scalar> 
4000
(
1123.149
1123.008
1124.821
1123.156
1122.681
1124.809
1123.015
1126.372
1124.825
1123.163
1122.073
1124.78
1122.689
1126.396
1124.813
1123.022
1127.837
1126.373
1124.829
1123.17
1121.047
1124.723
1122.082
1126.451
1124.784
1122.696
1127.874
1126.397
1124.817
1123.03
1129.252
1127.835
1126.373
1124.833
1123.177
1119.533
1124.615
1121.061
1126.546
1124.724
1122.092
1127.955
1126.451
1124.787
1122.704
1129.291
1127.871
1126.398
1124.82
1123.037
1130.623
1129.247
1127.833
1126.374
1124.836
1117.805
1124.426
1119.56
1126.691
1124.614
1121.076
1128.099
1126.544
1124.726
1122.102
1129.38
1127.952
1126.451
1124.789
1122.712
1130.663
1129.287
1127.869
1126.398
1124.824
1131.951
1130.616
1129.242
1127.83
1126.374
1116.223
1124.123
1117.85
1126.87
1124.422
1119.587
1128.327
1126.685
1124.613
1121.092
1129.539
1128.094
1126.542
1124.728
1122.112
1130.752
1129.375
1127.949
1126.45
1124.792
1131.989
1130.656
1129.281
1127.866
1126.398
1133.234
1131.943
1130.61
1129.237
1127.828
1115.047
1123.77
1116.284
1126.991
1124.118
1117.894
1128.63
1126.858
1124.417
1119.614
1129.791
1128.318
1126.679
1124.612
1121.107
1130.91
1129.531
1128.089
1126.539
1124.729
1132.075
1130.744
1129.369
1127.945
1126.449
1133.271
1131.981
1130.649
1129.276
1127.863
1134.47
1133.224
1131.934
1130.602
1129.232
1114.427
1123.466
1115.121
1127.036
1123.768
1116.344
1128.9
1126.975
1124.113
1117.937
1130.132
1128.615
1126.845
1124.412
1119.641
1131.164
1129.78
1128.309
1126.673
1124.611
1132.229
1130.901
1129.524
1128.084
1126.536
1133.353
1132.066
1130.736
1129.363
1127.941
1134.505
1133.26
1131.972
1130.641
1129.27
1135.659
1134.46
1133.214
1131.925
1130.595
1114.427
1123.291
1114.506
1127.035
1123.467
1115.192
1129.092
1127.019
1123.766
1116.403
1130.452
1128.88
1126.958
1124.108
1117.98
1131.509
1130.115
1128.599
1126.833
1124.407
1132.475
1131.152
1129.769
1128.3
1126.666
1133.499
1132.218
1130.892
1129.516
1128.078
1134.583
1133.342
1132.057
1130.728
1129.356
1135.692
1134.494
1133.25
1131.963
1130.633
1136.8
1135.648
1134.448
1133.204
1131.916
1115.047
1123.291
1114.506
1127.024
1123.295
1114.584
1129.207
1127.018
1123.469
1115.263
1130.697
1129.069
1127.001
1123.764
1116.461
1131.84
1130.43
1128.859
1126.942
1124.103
1132.81
1131.491
1130.097
1128.583
1126.82
1133.734
1132.461
1131.139
1129.758
1128.29
1134.723
1133.488
1132.208
1130.882
1129.508
1135.766
1134.572
1133.331
1132.047
1130.72
1136.832
1135.68
1134.483
1133.24
1131.953
1137.893
1136.788
1135.636
1134.437
1133.193
1116.223
1123.466
1115.121
1127.024
1123.295
1114.584
1129.259
1127.008
1123.299
1114.661
1130.855
1129.183
1127.001
1123.469
1115.332
1132.099
1130.672
1129.046
1126.984
1123.761
1133.134
1131.817
1130.408
1128.839
1126.925
1134.054
1132.791
1131.473
1130.08
1128.567
1134.946
1133.72
1132.448
1131.126
1129.746
1135.899
1134.71
1133.476
1132.196
1130.872
1136.902
1135.754
1134.56
1133.32
1132.037
1137.923
1136.819
1135.668
1134.471
1133.229
1138.938
1137.88
1136.775
1135.624
1134.426
1117.805
1123.77
1116.284
1127.035
1123.467
1115.192
1129.259
1127.008
1123.299
1114.661
1130.931
1129.235
1126.991
1123.302
1114.736
1132.271
1130.829
1129.159
1126.984
1123.47
1133.391
1132.074
1130.647
1129.023
1126.966
1134.365
1133.111
1131.795
1130.386
1128.818
1135.25
1134.035
1132.772
1131.454
1130.062
1136.111
1134.931
1133.705
1132.434
1131.113
1137.028
1135.886
1134.697
1133.463
1132.185
1137.99
1136.889
1135.742
1134.548
1133.309
1138.967
1137.91
1136.807
1135.656
1134.46
1139.936
1138.925
1137.868
1136.763
1135.612
1119.533
1124.123
1117.85
1127.036
1123.768
1116.344
1129.207
1127.018
1123.469
1115.263
1130.931
1129.235
1126.991
1123.302
1114.736
1132.355
1130.904
1129.21
1126.974
1123.304
1133.563
1132.244
1130.802
1129.135
1126.966
1134.614
1133.366
1132.048
1130.622
1129
1135.547
1134.343
1133.089
1131.772
1130.364
1136.4
1135.231
1134.016
1132.754
1131.436
1137.23
1136.096
1134.916
1133.691
1132.42
1138.111
1137.015
1135.872
1134.684
1133.451
1139.031
1137.977
1136.876
1135.729
1134.536
1139.963
1138.954
1137.897
1136.794
1135.644
1140.887
1139.923
1138.912
1137.855
1136.75
1121.047
1124.426
1119.56
1126.991
1124.118
1117.894
1129.092
1127.019
1123.766
1116.403
1130.855
1129.183
1127.001
1123.469
1115.332
1132.355
1130.904
1129.21
1126.974
1123.304
1133.649
1132.328
1130.878
1129.186
1126.956
1134.782
1133.537
1132.217
1130.776
1129.111
1135.785
1134.59
1133.341
1132.023
1130.597
1136.683
1135.525
1134.321
1133.066
1131.749
1137.505
1136.381
1135.212
1133.998
1132.735
1138.303
1137.215
1136.08
1134.901
1133.676
1139.146
1138.097
1137.001
1135.859
1134.671
1140.025
1139.018
1137.964
1136.863
1135.716
1140.913
1139.95
1138.94
1137.884
1136.781
1141.792
1140.874
1139.909
1138.899
1137.841
1122.073
1124.615
1121.061
1126.87
1124.422
1119.587
1128.9
1126.975
1124.113
1117.937
1130.697
1129.069
1127.001
1123.764
1116.461
1132.271
1130.829
1129.159
1126.984
1123.47
1133.649
1132.328
1130.878
1129.186
1126.956
1134.865
1133.622
1132.301
1130.851
1129.162
1135.946
1134.756
1133.511
1132.191
1130.75
1136.91
1135.761
1134.565
1133.316
1131.998
1137.775
1136.661
1135.503
1134.299
1133.044
1138.566
1137.487
1136.362
1135.193
1133.978
1139.331
1138.288
1137.199
1136.065
1134.885
1140.136
1139.132
1138.083
1136.987
1135.845
1140.973
1140.012
1139.004
1137.95
1136.85
1141.817
1140.9
1139.937
1138.927
1137.871
1142.652
1141.779
1140.86
1139.896
1138.885
1122.681
1124.723
1122.082
1126.691
1124.614
1121.076
1128.63
1126.858
1124.417
1119.614
1130.452
1128.88
1126.958
1124.108
1117.98
1132.099
1130.672
1129.046
1126.984
1123.761
1133.563
1132.244
1130.802
1129.135
1126.966
1134.865
1133.622
1132.301
1130.851
1129.162
1136.026
1134.839
1133.595
1132.274
1130.824
1137.064
1135.921
1134.731
1133.485
1132.164
1137.992
1136.887
1135.738
1134.541
1133.291
1138.823
1137.754
1136.64
1135.481
1134.276
1139.581
1138.547
1137.468
1136.344
1135.174
1140.312
1139.315
1138.272
1137.183
1136.049
1141.079
1140.122
1139.118
1138.069
1136.973
1141.875
1140.959
1139.998
1138.991
1137.937
1142.677
1141.804
1140.886
1139.923
1138.914
1143.468
1142.639
1141.765
1140.847
1139.883
1123.008
1124.78
1122.689
1126.546
1124.724
1122.092
1128.327
1126.685
1124.613
1121.092
1130.132
1128.615
1126.845
1124.412
1119.641
1131.84
1130.43
1128.859
1126.942
1124.103
1133.391
1132.074
1130.647
1129.023
1126.966
1134.782
1133.537
1132.217
1130.776
1129.111
1136.026
1134.839
1133.595
1132.274
1130.824
1137.141
1136.001
1134.813
1133.569
1132.247
1138.14
1137.04
1135.897
1134.705
1133.458
1139.031
1137.97
1136.864
1135.714
1134.517
1139.828
1138.803
1137.733
1136.619
1135.459
1140.553
1139.563
1138.529
1137.449
1136.325
1141.249
1140.297
1139.299
1138.256
1137.167
1141.977
1141.065
1140.107
1139.104
1138.054
1142.732
1141.861
1140.945
1139.984
1138.977
1143.492
1142.663
1141.791
1140.873
1139.91
1144.241
1143.455
1142.626
1141.752
1140.833
1123.149
1124.809
1123.015
1126.451
1124.784
1122.696
1128.099
1126.544
1124.726
1122.102
1129.791
1128.318
1126.679
1124.612
1121.107
1131.509
1130.115
1128.599
1126.833
1124.407
1133.134
1131.817
1130.408
1128.839
1126.925
1134.614
1133.366
1132.048
1130.622
1129
1135.946
1134.756
1133.511
1132.191
1130.75
1137.141
1136.001
1134.813
1133.569
1132.247
1138.213
1137.117
1135.976
1134.787
1133.542
1139.173
1138.116
1137.017
1135.872
1134.68
1140.028
1139.01
1137.947
1136.841
1135.69
1140.79
1139.808
1138.783
1137.712
1136.597
1141.48
1140.535
1139.545
1138.511
1137.431
1142.14
1141.233
1140.281
1139.284
1138.24
1142.831
1141.963
1141.051
1140.093
1139.089
1143.545
1142.718
1141.847
1140.932
1139.97
1144.264
1143.479
1142.65
1141.777
1140.859
1144.971
1144.228
1143.442
1142.612
1141.739
1124.821
1123.156
1126.396
1124.813
1123.022
1127.955
1126.451
1124.787
1122.704
1129.539
1128.094
1126.542
1124.728
1122.112
1131.164
1129.78
1128.309
1126.673
1124.611
1132.81
1131.491
1130.097
1128.583
1126.82
1134.365
1133.111
1131.795
1130.386
1128.818
1135.785
1134.59
1133.341
1132.023
1130.597
1137.064
1135.921
1134.731
1133.485
1132.164
1138.213
1137.117
1135.976
1134.787
1133.542
1139.243
1138.19
1137.093
1135.951
1134.761
1140.163
1139.15
1138.093
1136.993
1135.847
1140.981
1140.007
1138.988
1137.925
1136.818
1141.708
1140.77
1139.788
1138.762
1137.691
1142.363
1141.462
1140.517
1139.527
1138.492
1142.988
1142.125
1141.218
1140.266
1139.268
1143.641
1142.817
1141.949
1141.036
1140.078
1144.315
1143.532
1142.705
1141.834
1140.918
1144.993
1144.251
1143.465
1142.637
1141.764
1145.66
1144.958
1144.215
1143.429
1142.599
1126.372
1124.825
1123.163
1127.874
1126.397
1124.817
1123.03
1129.38
1127.952
1126.451
1124.789
1122.712
1130.91
1129.531
1128.089
1126.539
1124.729
1132.475
1131.152
1129.769
1128.3
1126.666
1134.054
1132.791
1131.473
1130.08
1128.567
1135.547
1134.343
1133.089
1131.772
1130.364
1136.91
1135.761
1134.565
1133.316
1131.998
1138.14
1137.04
1135.897
1134.705
1133.458
1139.243
1138.19
1137.093
1135.951
1134.761
1140.231
1139.221
1138.167
1137.069
1135.926
1141.112
1140.142
1139.128
1138.07
1136.969
1141.892
1140.961
1139.986
1138.966
1137.903
1142.583
1141.689
1140.751
1139.769
1138.742
1143.203
1142.346
1141.445
1140.5
1139.509
1143.793
1142.974
1142.11
1141.202
1140.25
1144.408
1143.627
1142.803
1141.934
1141.022
1145.043
1144.302
1143.518
1142.691
1141.82
1145.681
1144.98
1144.238
1143.452
1142.623
1146.308
1145.647
1144.945
1144.202
1143.415
1127.837
1126.373
1124.829
1123.17
1129.291
1127.871
1126.398
1124.82
1123.037
1130.752
1129.375
1127.949
1126.45
1124.792
1132.229
1130.901
1129.524
1128.084
1126.536
1133.734
1132.461
1131.139
1129.758
1128.29
1135.25
1134.035
1132.772
1131.454
1130.062
1136.683
1135.525
1134.321
1133.066
1131.749
1137.992
1136.887
1135.738
1134.541
1133.291
1139.173
1138.116
1137.017
1135.872
1134.68
1140.231
1139.221
1138.167
1137.069
1135.926
1141.177
1140.209
1139.198
1138.143
1137.044
1142.018
1141.091
1140.12
1139.105
1138.047
1142.761
1141.873
1140.94
1139.965
1138.944
1143.416
1142.565
1141.67
1140.731
1139.749
1144.001
1143.187
1142.329
1141.428
1140.482
1144.556
1143.779
1142.959
1142.095
1141.187
1145.133
1144.394
1143.613
1142.788
1141.92
1145.73
1145.03
1144.289
1143.505
1142.677
1146.329
1145.669
1144.967
1144.224
1143.439
1146.916
1146.296
1145.635
1144.932
1144.188
1129.252
1127.835
1126.373
1124.833
1123.177
1130.663
1129.287
1127.869
1126.398
1124.824
1132.075
1130.744
1129.369
1127.945
1126.449
1133.499
1132.218
1130.892
1129.516
1128.078
1134.946
1133.72
1132.448
1131.126
1129.746
1136.4
1135.231
1134.016
1132.754
1131.436
1137.775
1136.661
1135.503
1134.299
1133.044
1139.031
1137.97
1136.864
1135.714
1134.517
1140.163
1139.15
1138.093
1136.993
1135.847
1141.177
1140.209
1139.198
1138.143
1137.044
1142.082
1141.156
1140.188
1139.175
1138.12
1142.883
1141.998
1141.07
1140.098
1139.083
1143.588
1142.742
1141.853
1140.92
1139.943
1144.207
1143.398
1142.546
1141.651
1140.712
1144.757
1143.985
1143.17
1142.312
1141.41
1145.276
1144.541
1143.764
1142.943
1142.079
1145.817
1145.12
1144.381
1143.599
1142.774
1146.376
1145.717
1145.017
1144.276
1143.491
1146.937
1146.317
1145.656
1144.954
1144.211
1147.486
1146.904
1146.283
1145.622
1144.919
1130.623
1129.247
1127.833
1126.374
1124.836
1131.989
1130.656
1129.281
1127.866
1126.398
1133.353
1132.066
1130.736
1129.363
1127.941
1134.723
1133.488
1132.208
1130.882
1129.508
1136.111
1134.931
1133.705
1132.434
1131.113
1137.505
1136.381
1135.212
1133.998
1132.735
1138.823
1137.754
1136.64
1135.481
1134.276
1140.028
1139.01
1137.947
1136.841
1135.69
1141.112
1140.142
1139.128
1138.07
1136.969
1142.082
1141.156
1140.188
1139.175
1138.12
1142.944
1142.061
1141.135
1140.166
1139.153
1143.706
1142.863
1141.978
1141.049
1140.077
1144.374
1143.569
1142.723
1141.833
1140.9
1144.956
1144.189
1143.38
1142.528
1141.632
1145.472
1144.741
1143.968
1143.153
1142.295
1145.957
1145.262
1144.527
1143.749
1142.928
1146.461
1145.804
1145.106
1144.367
1143.585
1146.983
1146.364
1145.704
1145.004
1144.262
1147.506
1146.925
1146.304
1145.643
1144.941
1148.017
1147.474
1146.892
1146.271
1145.609
1131.951
1130.616
1129.242
1127.83
1126.374
1133.271
1131.981
1130.649
1129.276
1127.863
1134.583
1133.342
1132.057
1130.728
1129.356
1135.899
1134.71
1133.476
1132.196
1130.872
1137.23
1136.096
1134.916
1133.691
1132.42
1138.566
1137.487
1136.362
1135.193
1133.978
1139.828
1138.803
1137.733
1136.619
1135.459
1140.981
1140.007
1138.988
1137.925
1136.818
1142.018
1141.091
1140.12
1139.105
1138.047
1142.944
1142.061
1141.135
1140.166
1139.153
1143.765
1142.924
1142.041
1141.114
1140.144
1144.488
1143.687
1142.844
1141.957
1141.028
1145.118
1144.355
1143.551
1142.703
1141.813
1145.665
1144.939
1144.172
1143.362
1142.509
1146.146
1145.456
1144.725
1143.952
1143.137
1146.597
1145.943
1145.248
1144.512
1143.734
1147.066
1146.448
1145.791
1145.093
1144.353
1147.551
1146.971
1146.351
1145.691
1144.991
1148.037
1147.494
1146.912
1146.291
1145.63
1148.511
1148.006
1147.462
1146.88
1146.258
1133.234
1131.943
1130.61
1129.237
1127.828
1134.505
1133.26
1131.972
1130.641
1129.27
1135.766
1134.572
1133.331
1132.047
1130.72
1137.028
1135.886
1134.697
1133.463
1132.185
1138.303
1137.215
1136.08
1134.901
1133.676
1139.581
1138.547
1137.468
1136.344
1135.174
1140.79
1139.808
1138.783
1137.712
1136.597
1141.892
1140.961
1139.986
1138.966
1137.903
1142.883
1141.998
1141.07
1140.098
1139.083
1143.765
1142.924
1142.041
1141.114
1140.144
1144.545
1143.746
1142.904
1142.02
1141.093
1145.229
1144.469
1143.668
1142.824
1141.937
1145.823
1145.101
1144.337
1143.532
1142.684
1146.334
1145.649
1144.922
1144.154
1143.344
1146.781
1146.131
1145.441
1144.709
1143.936
1147.198
1146.583
1145.929
1145.234
1144.497
1147.631
1147.053
1146.435
1145.778
1145.079
1148.081
1147.539
1146.958
1146.338
1145.678
1148.53
1148.025
1147.482
1146.9
1146.279
1148.968
1148.5
1147.994
1147.45
1146.867
1134.47
1133.224
1131.934
1130.602
1129.232
1135.692
1134.494
1133.25
1131.963
1130.633
1136.902
1135.754
1134.56
1133.32
1132.037
1138.111
1137.015
1135.872
1134.684
1133.451
1139.331
1138.288
1137.199
1136.065
1134.885
1140.553
1139.563
1138.529
1137.449
1136.325
1141.708
1140.77
1139.788
1138.762
1137.691
1142.761
1141.873
1140.94
1139.965
1138.944
1143.706
1142.863
1141.978
1141.049
1140.077
1144.545
1143.746
1142.904
1142.02
1141.093
1145.285
1144.526
1143.727
1142.884
1142
1145.931
1145.211
1144.451
1143.649
1142.804
1146.488
1145.806
1145.083
1144.319
1143.513
1146.964
1146.318
1145.632
1144.905
1144.137
1147.377
1146.766
1146.116
1145.425
1144.693
1147.76
1147.184
1146.569
1145.915
1145.219
1148.159
1147.619
1147.04
1146.422
1145.764
1148.573
1148.069
1147.527
1146.946
1146.326
1148.987
1148.519
1148.013
1147.47
1146.888
1149.389
1148.957
1148.488
1147.982
1147.438
1135.659
1134.46
1133.214
1131.925
1130.595
1136.832
1135.68
1134.483
1133.24
1131.953
1137.99
1136.889
1135.742
1134.548
1133.309
1139.146
1138.097
1137.001
1135.859
1134.671
1140.312
1139.315
1138.272
1137.183
1136.049
1141.48
1140.535
1139.545
1138.511
1137.431
1142.583
1141.689
1140.751
1139.769
1138.742
1143.588
1142.742
1141.853
1140.92
1139.943
1144.488
1143.687
1142.844
1141.957
1141.028
1145.285
1144.526
1143.727
1142.884
1142
1145.985
1145.267
1144.508
1143.707
1142.865
1146.593
1145.913
1145.193
1144.432
1143.63
1147.114
1146.471
1145.788
1145.065
1144.301
1147.556
1146.949
1146.302
1145.616
1144.888
1147.935
1147.363
1146.752
1146.101
1145.409
1148.285
1147.747
1147.171
1146.556
1145.9
1148.65
1148.147
1147.606
1147.027
1146.409
1149.029
1148.561
1148.057
1147.514
1146.933
1149.407
1148.976
1148.507
1148.001
1147.457
1149.775
1149.378
1148.946
1148.476
1147.97
1136.8
1135.648
1134.448
1133.204
1131.916
1137.923
1136.819
1135.668
1134.471
1133.229
1139.031
1137.977
1136.876
1135.729
1134.536
1140.136
1139.132
1138.083
1136.987
1135.845
1141.249
1140.297
1139.299
1138.256
1137.167
1142.363
1141.462
1140.517
1139.527
1138.492
1143.416
1142.565
1141.67
1140.731
1139.749
1144.374
1143.569
1142.723
1141.833
1140.9
1145.229
1144.469
1143.668
1142.824
1141.937
1145.985
1145.267
1144.508
1143.707
1142.865
1146.646
1145.967
1145.249
1144.489
1143.688
1147.216
1146.576
1145.896
1145.175
1144.414
1147.702
1147.098
1146.454
1145.771
1145.048
1148.11
1147.541
1146.933
1146.286
1145.599
1148.456
1147.921
1147.348
1146.737
1146.085
1148.773
1148.272
1147.734
1147.157
1146.542
1149.104
1148.638
1148.135
1147.594
1147.014
1149.449
1149.017
1148.55
1148.045
1147.502
1149.792
1149.396
1148.964
1148.495
1147.989
1150.125
1149.764
1149.367
1148.934
1148.465
1137.893
1136.788
1135.636
1134.437
1133.193
1138.967
1137.91
1136.807
1135.656
1134.46
1140.025
1139.018
1137.964
1136.863
1135.716
1141.079
1140.122
1139.118
1138.069
1136.973
1142.14
1141.233
1140.281
1139.284
1138.24
1143.203
1142.346
1141.445
1140.5
1139.509
1144.207
1143.398
1142.546
1141.651
1140.712
1145.118
1144.355
1143.551
1142.703
1141.813
1145.931
1145.211
1144.451
1143.649
1142.804
1146.646
1145.967
1145.249
1144.489
1143.688
1147.268
1146.629
1145.95
1145.231
1144.471
1147.802
1147.2
1146.559
1145.878
1145.157
1148.252
1147.686
1147.081
1146.438
1145.754
1148.627
1148.095
1147.525
1146.917
1146.27
1148.94
1148.442
1147.907
1147.334
1146.722
1149.224
1148.76
1148.259
1147.721
1147.144
1149.522
1149.092
1148.626
1148.122
1147.581
1149.833
1149.437
1149.006
1148.538
1148.033
1150.143
1149.782
1149.385
1148.953
1148.483
1150.441
1150.114
1149.753
1149.356
1148.923
1138.938
1137.88
1136.775
1135.624
1134.426
1139.963
1138.954
1137.897
1136.794
1135.644
1140.973
1140.012
1139.004
1137.95
1136.85
1141.977
1141.065
1140.107
1139.104
1138.054
1142.988
1142.125
1141.218
1140.266
1139.268
1144.001
1143.187
1142.329
1141.428
1140.482
1144.956
1144.189
1143.38
1142.528
1141.632
1145.823
1145.101
1144.337
1143.532
1142.684
1146.593
1145.913
1145.193
1144.432
1143.63
1147.268
1146.629
1145.95
1145.231
1144.471
1147.852
1147.251
1146.611
1145.932
1145.213
1148.35
1147.786
1147.183
1146.542
1145.861
1148.766
1148.237
1147.67
1147.065
1146.421
1149.107
1148.612
1148.08
1147.51
1146.902
1149.388
1148.927
1148.429
1147.893
1147.319
1149.64
1149.212
1148.748
1148.246
1147.707
1149.905
1149.511
1149.08
1148.614
1148.11
1150.182
1149.822
1149.426
1148.994
1148.526
1150.458
1150.132
1149.771
1149.374
1148.941
1150.723
1150.431
1150.104
1149.742
1149.345
1139.936
1138.925
1137.868
1136.763
1135.612
1140.913
1139.95
1138.94
1137.884
1136.781
1141.875
1140.959
1139.998
1138.991
1137.937
1142.831
1141.963
1141.051
1140.093
1139.089
1143.793
1142.974
1142.11
1141.202
1140.25
1144.757
1143.985
1143.17
1142.312
1141.41
1145.665
1144.939
1144.172
1143.362
1142.509
1146.488
1145.806
1145.083
1144.319
1143.513
1147.216
1146.576
1145.896
1145.175
1144.414
1147.852
1147.251
1146.611
1145.932
1145.213
1148.399
1147.836
1147.235
1146.594
1145.915
1148.862
1148.334
1147.77
1147.167
1146.525
1149.243
1148.751
1148.221
1147.654
1147.049
1149.551
1149.093
1148.597
1148.065
1147.495
1149.8
1149.375
1148.913
1148.415
1147.879
1150.02
1149.628
1149.2
1148.735
1148.233
1150.253
1149.894
1149.499
1149.069
1148.601
1150.497
1150.171
1149.811
1149.415
1148.982
1150.74
1150.448
1150.121
1149.76
1149.363
1150.972
1150.713
1150.42
1150.093
1149.731
1140.887
1139.923
1138.912
1137.855
1136.75
1141.817
1140.9
1139.937
1138.927
1137.871
1142.732
1141.861
1140.945
1139.984
1138.977
1143.641
1142.817
1141.949
1141.036
1140.078
1144.556
1143.779
1142.959
1142.095
1141.187
1145.472
1144.741
1143.968
1143.153
1142.295
1146.334
1145.649
1144.922
1144.154
1143.344
1147.114
1146.471
1145.788
1145.065
1144.301
1147.802
1147.2
1146.559
1145.878
1145.157
1148.399
1147.836
1147.235
1146.594
1145.915
1148.91
1148.384
1147.82
1147.218
1146.577
1149.337
1148.846
1148.319
1147.754
1147.15
1149.685
1149.229
1148.736
1148.206
1147.639
1149.961
1149.537
1149.078
1148.583
1148.05
1150.178
1149.788
1149.362
1148.9
1148.401
1150.366
1150.009
1149.616
1149.187
1148.722
1150.567
1150.242
1149.882
1149.487
1149.057
1150.778
1150.487
1150.16
1149.799
1149.403
1150.989
1150.73
1150.437
1150.11
1149.748
1151.188
1150.962
1150.703
1150.41
1150.082
1141.792
1140.874
1139.909
1138.899
1137.841
1142.677
1141.804
1140.886
1139.923
1138.914
1143.545
1142.718
1141.847
1140.932
1139.97
1144.408
1143.627
1142.803
1141.934
1141.022
1145.276
1144.541
1143.764
1142.943
1142.079
1146.146
1145.456
1144.725
1143.952
1143.137
1146.964
1146.318
1145.632
1144.905
1144.137
1147.702
1147.098
1146.454
1145.771
1145.048
1148.35
1147.786
1147.183
1146.542
1145.861
1148.91
1148.384
1147.82
1147.218
1146.577
1149.384
1148.895
1148.368
1147.804
1147.202
1149.777
1149.322
1148.831
1148.303
1147.738
1150.092
1149.671
1149.214
1148.721
1148.191
1150.335
1149.947
1149.524
1149.064
1148.568
1150.521
1150.165
1149.775
1149.348
1148.886
1150.678
1150.355
1149.997
1149.604
1149.175
1150.847
1150.556
1150.231
1149.871
1149.476
1151.026
1150.768
1150.476
1150.15
1149.788
1151.204
1150.978
1150.72
1150.427
1150.099
1151.371
1151.178
1150.952
1150.692
1150.399
1142.652
1141.779
1140.86
1139.896
1138.885
1143.492
1142.663
1141.791
1140.873
1139.91
1144.315
1143.532
1142.705
1141.834
1140.918
1145.133
1144.394
1143.613
1142.788
1141.92
1145.957
1145.262
1144.527
1143.749
1142.928
1146.781
1146.131
1145.441
1144.709
1143.936
1147.556
1146.949
1146.302
1145.616
1144.888
1148.252
1147.686
1147.081
1146.438
1145.754
1148.862
1148.334
1147.77
1147.167
1146.525
1149.384
1148.895
1148.368
1147.804
1147.202
1149.823
1149.369
1148.879
1148.352
1147.788
1150.182
1149.763
1149.307
1148.816
1148.288
1150.464
1150.078
1149.657
1149.199
1148.706
1150.675
1150.322
1149.933
1149.51
1149.05
1150.83
1150.509
1150.153
1149.762
1149.335
1150.956
1150.667
1150.343
1149.985
1149.591
1151.093
1150.836
1150.545
1150.22
1149.859
1151.241
1151.016
1150.758
1150.465
1150.138
1151.387
1151.194
1150.968
1150.709
1150.416
1151.522
1151.361
1151.168
1150.942
1150.682
1143.468
1142.639
1141.765
1140.847
1139.883
1144.264
1143.479
1142.65
1141.777
1140.859
1145.043
1144.302
1143.518
1142.691
1141.82
1145.817
1145.12
1144.381
1143.599
1142.774
1146.597
1145.943
1145.248
1144.512
1143.734
1147.377
1146.766
1146.116
1145.425
1144.693
1148.11
1147.541
1146.933
1146.286
1145.599
1148.766
1148.237
1147.67
1147.065
1146.421
1149.337
1148.846
1148.319
1147.754
1147.15
1149.823
1149.369
1148.879
1148.352
1147.788
1150.228
1149.809
1149.355
1148.864
1148.337
1150.553
1150.168
1149.748
1149.293
1148.801
1150.802
1150.45
1150.064
1149.642
1149.185
1150.982
1150.662
1150.309
1149.92
1149.496
1151.106
1150.818
1150.496
1150.14
1149.749
1151.201
1150.945
1150.656
1150.332
1149.973
1151.307
1151.083
1150.825
1150.534
1150.208
1151.423
1151.231
1151.006
1150.747
1150.454
1151.538
1151.377
1151.184
1150.958
1150.699
1151.641
1151.512
1151.351
1151.158
1150.931
1144.241
1143.455
1142.626
1141.752
1140.833
1144.993
1144.251
1143.465
1142.637
1141.764
1145.73
1145.03
1144.289
1143.505
1142.677
1146.461
1145.804
1145.106
1144.367
1143.585
1147.198
1146.583
1145.929
1145.234
1144.497
1147.935
1147.363
1146.752
1146.101
1145.409
1148.627
1148.095
1147.525
1146.917
1146.27
1149.243
1148.751
1148.221
1147.654
1147.049
1149.777
1149.322
1148.831
1148.303
1147.738
1150.228
1149.809
1149.355
1148.864
1148.337
1150.598
1150.214
1149.794
1149.34
1148.849
1150.889
1150.539
1150.154
1149.734
1149.278
1151.107
1150.789
1150.437
1150.05
1149.628
1151.255
1150.969
1150.65
1150.295
1149.906
1151.349
1151.094
1150.806
1150.484
1150.127
1151.414
1151.191
1150.934
1150.644
1150.32
1151.489
1151.297
1151.073
1150.815
1150.523
1151.574
1151.414
1151.221
1150.995
1150.736
1151.657
1151.528
1151.367
1151.174
1150.948
1151.729
1151.632
1151.503
1151.342
1151.148
1144.971
1144.228
1143.442
1142.612
1141.739
1145.681
1144.98
1144.238
1143.452
1142.623
1146.376
1145.717
1145.017
1144.276
1143.491
1147.066
1146.448
1145.791
1145.093
1144.353
1147.76
1147.184
1146.569
1145.915
1145.219
1148.456
1147.921
1147.348
1146.737
1146.085
1149.107
1148.612
1148.08
1147.51
1146.902
1149.685
1149.229
1148.736
1148.206
1147.639
1150.182
1149.763
1149.307
1148.816
1148.288
1150.598
1150.214
1149.794
1149.34
1148.849
1150.934
1150.584
1150.199
1149.78
1149.325
1151.193
1150.876
1150.525
1150.14
1149.719
1151.378
1151.094
1150.776
1150.423
1150.036
1151.496
1151.243
1150.957
1150.637
1150.282
1151.559
1151.337
1151.082
1150.794
1150.472
1151.594
1151.403
1151.18
1150.923
1150.633
1151.638
1151.479
1151.287
1151.062
1150.804
1151.692
1151.564
1151.404
1151.211
1150.985
1151.744
1151.647
1151.518
1151.358
1151.164
1151.786
1151.72
1151.622
1151.493
1151.332
1145.66
1144.958
1144.215
1143.429
1142.599
1146.329
1145.669
1144.967
1144.224
1143.439
1146.983
1146.364
1145.704
1145.004
1144.262
1147.631
1147.053
1146.435
1145.778
1145.079
1148.285
1147.747
1147.171
1146.556
1145.9
1148.94
1148.442
1147.907
1147.334
1146.722
1149.551
1149.093
1148.597
1148.065
1147.495
1150.092
1149.671
1149.214
1148.721
1148.191
1150.553
1150.168
1149.748
1149.293
1148.801
1150.934
1150.584
1150.199
1149.78
1149.325
1151.236
1150.92
1150.57
1150.185
1149.765
1151.463
1151.18
1150.863
1150.512
1150.126
1151.617
1151.366
1151.081
1150.762
1150.41
1151.704
1151.484
1151.231
1150.944
1150.624
1151.737
1151.548
1151.326
1151.07
1150.782
1151.742
1151.583
1151.392
1151.169
1150.912
1151.756
1151.628
1151.469
1151.277
1151.051
1151.78
1151.683
1151.554
1151.394
1151.201
1151.802
1151.735
1151.638
1151.509
1151.348
1151.814
1151.777
1151.71
1151.613
1151.483
1146.308
1145.647
1144.945
1144.202
1143.415
1146.937
1146.317
1145.656
1144.954
1144.211
1147.551
1146.971
1146.351
1145.691
1144.991
1148.159
1147.619
1147.04
1146.422
1145.764
1148.773
1148.272
1147.734
1147.157
1146.542
1149.388
1148.927
1148.429
1147.893
1147.319
1149.961
1149.537
1149.078
1148.583
1148.05
1150.464
1150.078
1149.657
1149.199
1148.706
1150.889
1150.539
1150.154
1149.734
1149.278
1151.236
1150.92
1150.57
1150.185
1149.765
1151.506
1151.223
1150.907
1150.556
1150.171
1151.701
1151.45
1151.167
1150.849
1150.498
1151.824
1151.605
1151.353
1151.068
1150.749
1151.881
1151.692
1151.472
1151.218
1150.932
1151.883
1151.726
1151.536
1151.314
1151.059
1151.859
1151.732
1151.573
1151.382
1151.158
1151.843
1151.747
1151.619
1151.459
1151.266
1151.837
1151.77
1151.673
1151.545
1151.384
1151.83
1151.793
1151.726
1151.628
1151.499
1151.805
1151.768
1151.701
1151.603
1146.916
1146.296
1145.635
1144.932
1144.188
1147.506
1146.925
1146.304
1145.643
1144.941
1148.081
1147.539
1146.958
1146.338
1145.678
1148.65
1148.147
1147.606
1147.027
1146.409
1149.224
1148.76
1148.259
1147.721
1147.144
1149.8
1149.375
1148.913
1148.415
1147.879
1150.335
1149.947
1149.524
1149.064
1148.568
1150.802
1150.45
1150.064
1149.642
1149.185
1151.193
1150.876
1150.525
1150.14
1149.719
1151.506
1151.223
1150.907
1150.556
1150.171
1151.743
1151.493
1151.21
1150.893
1150.542
1151.907
1151.689
1151.438
1151.154
1150.836
1151.999
1151.812
1151.593
1151.34
1151.055
1152.026
1151.869
1151.681
1151.46
1151.206
1151.999
1151.873
1151.715
1151.525
1151.302
1151.945
1151.849
1151.721
1151.562
1151.371
1151.9
1151.834
1151.737
1151.609
1151.448
1151.865
1151.828
1151.761
1151.664
1151.535
1151.821
1151.784
1151.717
1151.619
1151.796
1151.759
1151.692
1147.486
1146.904
1146.283
1145.622
1144.919
1148.037
1147.494
1146.912
1146.291
1145.63
1148.573
1148.069
1147.527
1146.946
1146.326
1149.104
1148.638
1148.135
1147.594
1147.014
1149.64
1149.212
1148.748
1148.246
1147.707
1150.178
1149.788
1149.362
1148.9
1148.401
1150.675
1150.322
1149.933
1149.51
1149.05
1151.107
1150.789
1150.437
1150.05
1149.628
1151.463
1151.18
1150.863
1150.512
1150.126
1151.743
1151.493
1151.21
1150.893
1150.542
1151.949
1151.731
1151.48
1151.197
1150.88
1152.081
1151.894
1151.676
1151.425
1151.14
1152.143
1151.987
1151.8
1151.58
1151.328
1152.14
1152.014
1151.858
1151.669
1151.448
1152.084
1151.988
1151.862
1151.704
1151.514
1152.001
1151.935
1151.839
1151.711
1151.552
1151.927
1151.891
1151.824
1151.727
1151.599
1151.856
1151.819
1151.752
1151.654
1151.812
1151.775
1151.707
1151.787
1151.75
1148.017
1147.474
1146.892
1146.271
1145.609
1148.53
1148.025
1147.482
1146.9
1146.279
1149.029
1148.561
1148.057
1147.514
1146.933
1149.522
1149.092
1148.626
1148.122
1147.581
1150.02
1149.628
1149.2
1148.735
1148.233
1150.521
1150.165
1149.775
1149.348
1148.886
1150.982
1150.662
1150.309
1149.92
1149.496
1151.378
1151.094
1150.776
1150.423
1150.036
1151.701
1151.45
1151.167
1150.849
1150.498
1151.949
1151.731
1151.48
1151.197
1150.88
1152.122
1151.936
1151.718
1151.467
1151.184
1152.224
1152.069
1151.882
1151.663
1151.412
1152.256
1152.131
1151.975
1151.788
1151.568
1152.223
1152.129
1152.003
1151.846
1151.657
1152.139
1152.073
1151.978
1151.851
1151.693
1152.028
1151.991
1151.925
1151.829
1151.701
1151.918
1151.881
1151.815
1151.717
1151.846
1151.809
1151.742
1151.803
1151.765
1151.778
1148.511
1148.006
1147.462
1146.88
1146.258
1148.987
1148.519
1148.013
1147.47
1146.888
1149.449
1149.017
1148.55
1148.045
1147.502
1149.905
1149.511
1149.08
1148.614
1148.11
1150.366
1150.009
1149.616
1149.187
1148.722
1150.83
1150.509
1150.153
1149.762
1149.335
1151.255
1150.969
1150.65
1150.295
1149.906
1151.617
1151.366
1151.081
1150.762
1150.41
1151.907
1151.689
1151.438
1151.154
1150.836
1152.122
1151.936
1151.718
1151.467
1151.184
1152.265
1152.11
1151.924
1151.706
1151.455
1152.336
1152.212
1152.057
1151.87
1151.651
1152.339
1152.244
1152.119
1151.964
1151.776
1152.278
1152.212
1152.117
1151.992
1151.835
1152.166
1152.129
1152.063
1151.967
1151.84
1152.019
1151.982
1151.915
1151.818
1151.909
1151.872
1151.805
1151.837
1151.8
1151.793
1148.968
1148.5
1147.994
1147.45
1146.867
1149.407
1148.976
1148.507
1148.001
1147.457
1149.833
1149.437
1149.006
1148.538
1148.033
1150.253
1149.894
1149.499
1149.069
1148.601
1150.678
1150.355
1149.997
1149.604
1149.175
1151.106
1150.818
1150.496
1150.14
1149.749
1151.496
1151.243
1150.957
1150.637
1150.282
1151.824
1151.605
1151.353
1151.068
1150.749
1152.081
1151.894
1151.676
1151.425
1151.14
1152.265
1152.11
1151.924
1151.706
1151.455
1152.377
1152.253
1152.098
1151.912
1151.693
1152.419
1152.325
1152.2
1152.045
1151.858
1152.393
1152.327
1152.233
1152.108
1151.952
1152.305
1152.267
1152.201
1152.106
1151.98
1152.156
1152.119
1152.052
1151.956
1152.009
1151.972
1151.905
1151.9
1151.862
1151.828
1149.389
1148.957
1148.488
1147.982
1147.438
1149.792
1149.396
1148.964
1148.495
1147.989
1150.182
1149.822
1149.426
1148.994
1148.526
1150.567
1150.242
1149.882
1149.487
1149.057
1150.956
1150.667
1150.343
1149.985
1149.591
1151.349
1151.094
1150.806
1150.484
1150.127
1151.704
1151.484
1151.231
1150.944
1150.624
1151.999
1151.812
1151.593
1151.34
1151.055
1152.224
1152.069
1151.882
1151.663
1151.412
1152.377
1152.253
1152.098
1151.912
1151.693
1152.459
1152.365
1152.241
1152.086
1151.899
1152.472
1152.407
1152.313
1152.188
1152.033
1152.42
1152.382
1152.316
1152.222
1152.096
1152.294
1152.256
1152.191
1152.095
1152.146
1152.108
1152.042
1151.999
1151.962
1151.89
1149.775
1149.378
1148.946
1148.476
1147.97
1150.143
1149.782
1149.385
1148.953
1148.483
1150.497
1150.171
1149.811
1149.415
1148.982
1150.847
1150.556
1150.231
1149.871
1149.476
1151.201
1150.945
1150.656
1150.332
1149.973
1151.559
1151.337
1151.082
1150.794
1150.472
1151.881
1151.692
1151.472
1151.218
1150.932
1152.143
1151.987
1151.8
1151.58
1151.328
1152.336
1152.212
1152.057
1151.87
1151.651
1152.459
1152.365
1152.241
1152.086
1151.899
1152.513
1152.448
1152.354
1152.229
1152.074
1152.499
1152.461
1152.396
1152.302
1152.177
1152.409
1152.371
1152.305
1152.21
1152.283
1152.246
1152.18
1152.135
1152.098
1151.989
1150.125
1149.764
1149.367
1148.934
1148.465
1150.458
1150.132
1149.771
1149.374
1148.941
1150.778
1150.487
1150.16
1149.799
1149.403
1151.093
1150.836
1150.545
1150.22
1149.859
1151.414
1151.191
1150.934
1150.644
1150.32
1151.737
1151.548
1151.326
1151.07
1150.782
1152.026
1151.869
1151.681
1151.46
1151.206
1152.256
1152.131
1151.975
1151.788
1151.568
1152.419
1152.325
1152.2
1152.045
1151.858
1152.513
1152.448
1152.354
1152.229
1152.074
1152.54
1152.501
1152.436
1152.342
1152.218
1152.488
1152.45
1152.384
1152.29
1152.398
1152.36
1152.294
1152.273
1152.235
1152.125
1150.441
1150.114
1149.753
1149.356
1148.923
1150.74
1150.448
1150.121
1149.76
1149.363
1151.026
1150.768
1150.476
1150.15
1149.788
1151.307
1151.083
1150.825
1150.534
1150.208
1151.594
1151.403
1151.18
1150.923
1150.633
1151.883
1151.726
1151.536
1151.314
1151.059
1152.14
1152.014
1151.858
1151.669
1151.448
1152.339
1152.244
1152.119
1151.964
1151.776
1152.472
1152.407
1152.313
1152.188
1152.033
1152.54
1152.501
1152.436
1152.342
1152.218
1152.528
1152.49
1152.425
1152.331
1152.477
1152.439
1152.373
1152.387
1152.349
1152.262
1150.723
1150.431
1150.104
1149.742
1149.345
1150.989
1150.73
1150.437
1150.11
1149.748
1151.241
1151.016
1150.758
1150.465
1150.138
1151.489
1151.297
1151.073
1150.815
1150.523
1151.742
1151.583
1151.392
1151.169
1150.912
1151.999
1151.873
1151.715
1151.525
1151.302
1152.223
1152.129
1152.003
1151.846
1151.657
1152.393
1152.327
1152.233
1152.108
1151.952
1152.499
1152.461
1152.396
1152.302
1152.177
1152.528
1152.49
1152.425
1152.331
1152.517
1152.479
1152.413
1152.466
1152.428
1152.376
1150.972
1150.713
1150.42
1150.093
1149.731
1151.204
1150.978
1150.72
1150.427
1150.099
1151.423
1151.231
1151.006
1150.747
1150.454
1151.638
1151.479
1151.287
1151.062
1150.804
1151.859
1151.732
1151.573
1151.382
1151.158
1152.084
1151.988
1151.862
1151.704
1151.514
1152.278
1152.212
1152.117
1151.992
1151.835
1152.42
1152.382
1152.316
1152.222
1152.096
1152.488
1152.45
1152.384
1152.29
1152.517
1152.479
1152.413
1152.506
1152.468
1152.455
1151.188
1150.962
1150.703
1150.41
1150.082
1151.387
1151.194
1150.968
1150.709
1150.416
1151.574
1151.414
1151.221
1150.995
1150.736
1151.756
1151.628
1151.469
1151.277
1151.051
1151.945
1151.849
1151.721
1151.562
1151.371
1152.139
1152.073
1151.978
1151.851
1151.693
1152.305
1152.267
1152.201
1152.106
1151.98
1152.409
1152.371
1152.305
1152.21
1152.477
1152.439
1152.373
1152.506
1152.468
1152.495
1151.371
1151.178
1150.952
1150.692
1150.399
1151.538
1151.377
1151.184
1150.958
1150.699
1151.692
1151.564
1151.404
1151.211
1150.985
1151.843
1151.747
1151.619
1151.459
1151.266
1152.001
1151.935
1151.839
1151.711
1151.552
1152.166
1152.129
1152.063
1151.967
1151.84
1152.294
1152.256
1152.191
1152.095
1152.398
1152.36
1152.294
1152.466
1152.428
1152.495
1151.522
1151.361
1151.168
1150.942
1150.682
1151.657
1151.528
1151.367
1151.174
1150.948
1151.78
1151.683
1151.554
1151.394
1151.201
1151.9
1151.834
1151.737
1151.609
1151.448
1152.028
1151.991
1151.925
1151.829
1151.701
1152.156
1152.119
1152.052
1151.956
1152.283
1152.246
1152.18
1152.387
1152.349
1152.455
1151.641
1151.512
1151.351
1151.158
1150.931
1151.744
1151.647
1151.518
1151.358
1151.164
1151.837
1151.77
1151.673
1151.545
1151.384
1151.927
1151.891
1151.824
1151.727
1151.599
1152.019
1151.982
1151.915
1151.818
1152.146
1152.108
1152.042
1152.273
1152.235
1152.376
1151.729
1151.632
1151.503
1151.342
1151.148
1151.802
1151.735
1151.638
1151.509
1151.348
1151.865
1151.828
1151.761
1151.664
1151.535
1151.918
1151.881
1151.815
1151.717
1152.009
1151.972
1151.905
1152.135
1152.098
1152.262
1151.786
1151.72
1151.622
1151.493
1151.332
1151.83
1151.793
1151.726
1151.628
1151.499
1151.856
1151.819
1151.752
1151.654
1151.909
1151.872
1151.805
1151.999
1151.962
1152.125
1151.814
1151.777
1151.71
1151.613
1151.483
1151.821
1151.784
1151.717
1151.619
1151.846
1151.809
1151.742
1151.9
1151.862
1151.989
1151.805
1151.768
1151.701
1151.603
1151.812
1151.775
1151.707
1151.837
1151.8
1151.89
1151.796
1151.759
1151.692
1151.803
1151.765
1151.828
1151.787
1151.75
1151.793
1151.778
)
;

boundaryField
{
    electrolyteSides
    {
        type            zeroGradient;
    }
    electrolyte_to_fuel
    {
        type            zeroGradient;
    }
    electrolyte_to_air
    {
        type            zeroGradient;
    }
}


// ************************************************************************* //
